#  TEXES order positions grabbed originally from the atmos plots
#  units are wavenumbers (cm-1) and edge-to-edge of each order for
#  on-blaze is shown
380.028	380.32
380.69	380.983
381.352	381.645
382.014	382.307
382.676	382.97
383.338	383.632
384.0	384.295
384.661	384.957
385.323	385.619
385.985	386.282
386.647	386.944
387.309	387.607
387.971	388.269
388.633	388.931
389.295	389.594
389.957	390.256
390.618	390.919
391.28	391.581
391.942	392.243
392.604	392.906
393.266	393.568
393.928	394.231
394.59	394.893
395.252	395.555
395.914	396.218
396.576	396.88
397.237	397.543
397.899	398.205
398.561	398.867
399.223	399.53
400.547	400.855
401.209	401.517
401.871	402.179
402.533	402.842
403.194	403.504
403.856	404.167
404.518	404.829
405.18	405.491
405.842	406.154
406.504	406.816
407.166	407.479
407.828	408.141
408.49	408.803
409.152	409.466
409.813	410.128
410.475	410.791
411.137	411.453
411.799	412.116
412.461	412.778
413.123	413.44
413.785	414.103
414.447	414.765
415.109	415.428
415.771	416.09
416.432	416.752
417.094	417.415
417.756	418.077
418.418	418.74
419.08	419.402
419.742	420.064
420.404	420.727
421.066	421.389
421.728	422.052
422.389	422.714
423.051	423.376
423.713	424.039
424.375	424.701
425.037	425.364
425.699	426.026
426.361	426.688
427.023	427.351
427.685	428.013
428.347	428.676
429.008	429.338
429.67	430.0
430.332	430.663
430.994	431.325
431.656	431.988
432.318	432.65
432.98	433.312
433.642	433.975
434.304	434.637
434.965	435.3
435.627	435.962
436.289	436.624
436.951	437.287
437.613	437.949
438.275	438.612
438.937	439.274
439.599	439.936
440.261	440.599
440.923	441.261
441.584	441.924
442.246	442.586
442.908	443.249
443.57	443.911
444.232	444.573
444.894	445.236
445.556	445.898
446.218	446.561
446.88	447.223
447.542	447.885
448.203	448.548
448.865	449.21
449.527	449.873
450.189	450.535
450.851	451.197
451.513	451.86
452.175	452.522
452.837	453.185
453.499	453.847
454.16	454.509
454.822	455.172
455.484	455.834
456.146	456.497
456.808	457.159
457.47	457.821
458.132	458.484
458.794	459.146
459.456	459.809
460.118	460.471
460.779	461.133
461.441	461.796
462.103	462.458
462.765	463.121
463.427	463.783
464.089	464.445
464.751	465.108
465.413	465.77
466.075	466.433
466.736	467.095
467.398	467.757
468.06	468.42
468.722	469.082
469.384	469.745
470.046	470.407
470.708	471.069
471.37	471.732
472.032	472.394
472.694	473.057
473.355	473.719
474.017	474.382
474.679	475.044
475.341	475.706
476.003	476.369
476.665	477.031
477.327	477.694
477.989	478.356
478.651	479.018
479.312	479.681
479.974	480.343
480.636	481.006
481.298	481.668
481.96	482.33
482.622	482.993
483.284	483.655
483.946	484.318
484.608	484.98
485.27	485.642
485.931	486.305
486.593	486.967
487.255	487.63
487.917	488.292
488.579	488.954
489.241	489.617
490.565	490.942
491.227	491.604
491.889	492.266
492.55	492.929
493.212	493.591
493.874	494.254
494.536	494.916
495.198	495.578
495.86	496.241
496.522	496.903
497.184	497.566
497.846	498.228
498.507	498.89
499.169	499.553
500.493	500.878
501.155	501.54
501.817	502.202
502.479	502.865
503.141	503.527
503.803	504.19
504.465	504.852
505.126	505.514
505.788	506.177
506.45	506.839
507.112	507.502
507.774	508.164
508.436	508.827
509.098	509.489
509.76	510.151
510.422	510.814
511.083	511.476
511.745	512.139
512.407	512.801
513.069	513.463
513.731	514.126
514.393	514.788
515.055	515.451
515.717	516.113
516.379	516.775
517.041	517.438
517.702	518.1
518.364	518.763
519.026	519.425
519.688	520.087
520.35	520.75
521.012	521.412
521.674	522.075
522.336	522.737
522.998	523.399
523.659	524.062
524.321	524.724
524.983	525.387
525.645	526.049
526.307	526.711
526.969	527.374
527.631	528.036
528.293	528.699
528.955	529.361
529.617	530.023
530.278	530.686
530.94	531.348
531.602	532.011
532.264	532.673
532.926	533.335
533.588	533.998
534.25	534.66
534.912	535.323
535.574	535.985
536.235	536.647
536.897	537.31
537.559	537.972
538.221	538.635
538.883	539.297
539.545	539.96
540.207	540.622
540.869	541.284
541.531	541.947
542.193	542.609
542.854	543.271
543.516	543.934
544.178	544.596
544.84	545.259
545.502	545.921
546.164	546.583
546.826	547.246
547.488	547.908
548.15	548.571
548.812	549.233
549.473	549.896
550.135	550.558
550.797	551.22
551.459	551.883
552.121	552.545
552.783	553.208
553.445	553.87
554.107	554.532
554.769	555.195
555.43	555.857
556.092	556.52
556.754	557.182
557.416	557.844
558.078	558.507
558.74	559.169
559.402	559.832
560.064	560.494
560.726	561.156
561.388	561.819
562.049	562.481
562.711	563.144
563.373	563.806
564.035	564.468
564.697	565.131
565.359	565.793
566.021	566.456
566.683	567.118
567.345	567.781
568.006	568.443
568.668	569.105
569.33	569.768
569.992	570.43
570.654	571.092
571.316	571.755
571.978	572.417
572.64	573.08
573.302	573.742
573.964	574.404
574.625	575.067
575.287	575.729
575.949	576.392
576.611	577.054
577.273	577.717
577.935	578.379
578.597	579.041
579.259	579.704
579.821	580.266
579.921	580.366
580.483	580.929
580.583	581.029
581.145	581.591
581.244	581.691
581.806	582.253
581.906	582.353
582.468	582.916
582.568	583.016
583.13	583.578
583.23	583.678
583.792	584.241
583.892	584.341
584.454	584.903
584.554	585.003
585.116	585.565
585.216	585.665
585.778	586.228
585.878	586.328
586.44	586.89
586.54	586.99
587.102	587.553
587.201	587.653
587.763	588.215
587.863	588.315
588.425	588.877
588.525	588.977
589.087	589.54
589.187	589.64
589.749	590.202
590.511	590.965
591.173	591.627
591.835	592.289
592.497	592.952
593.159	593.614
593.82	594.277
594.482	594.939
595.144	595.601
595.806	596.264
596.468	596.926
597.13	597.589
597.792	598.251
598.454	598.913
599.116	599.576
600.439	600.901
601.101	601.563
601.763	602.225
602.425	602.888
603.087	603.55
603.749	604.213
604.411	604.875
605.073	605.538
605.735	606.2
606.396	606.862
607.058	607.525
607.72	608.187
608.382	608.85
609.044	609.512
609.706	610.174
720.243	720.796
720.904	721.458
721.566	722.121
722.228	722.783
722.89	723.445
723.552	724.108
724.214	724.77
724.876	725.433
725.538	726.095
726.2	726.758
726.862	727.42
727.523	728.082
728.185	728.745
728.847	729.407
729.509	730.07
730.171	730.732
730.833	731.394
731.495	732.057
732.157	732.719
732.819	733.382
733.48	734.044
734.142	734.706
734.804	735.369
735.466	736.031
736.128	736.694
736.79	737.356
737.452	738.018
738.114	738.681
738.776	739.343
739.438	740.006
740.099	740.668
740.761	741.33
741.423	741.993
742.085	742.655
742.747	743.318
743.409	743.98
744.071	744.642
744.733	745.305
745.395	745.967
746.057	746.63
746.718	747.292
747.38	747.954
748.042	748.617
748.704	749.279
749.366	749.942
750.028	750.604
750.69	751.266
751.352	751.929
752.014	752.591
752.675	753.254
753.337	753.916
753.999	754.578
754.661	755.241
755.323	755.903
755.985	756.566
756.647	757.228
757.309	757.891
757.971	758.553
758.633	759.215
759.294	759.878
759.956	760.54
760.618	761.203
761.28	761.865
761.942	762.527
762.604	763.19
763.266	763.852
763.928	764.515
764.59	765.177
765.251	765.839
765.913	766.502
766.575	767.164
767.237	767.827
767.899	768.489
768.561	769.151
769.223	769.814
769.785	770.376
769.885	770.476
770.447	771.039
770.547	771.139
771.109	771.701
771.208	771.801
771.771	772.363
771.87	772.463
772.432	773.026
772.532	773.126
773.094	773.688
773.194	773.788
773.756	774.351
773.856	774.451
774.418	775.013
774.518	775.113
775.08	775.675
775.18	775.775
775.742	776.338
775.842	776.438
776.404	777.0
776.504	777.1
777.066	777.663
777.166	777.763
777.728	778.325
777.828	778.425
778.389	778.987
778.489	779.087
779.051	779.65
779.151	779.75
779.813	780.412
780.475	781.075
781.137	781.737
781.799	782.399
782.461	783.062
783.123	783.724
783.785	784.387
784.446	785.049
785.108	785.711
785.77	786.374
786.432	787.036
787.094	787.699
787.756	788.361
788.418	789.023
789.08	789.686
790.404	791.011
791.065	791.673
791.727	792.336
792.389	792.998
793.051	793.66
793.713	794.323
794.375	794.985
795.037	795.648
795.699	796.31
796.361	796.972
797.022	797.635
797.684	798.297
798.346	798.96
799.008	799.622
799.67	800.284
800.332	800.947
800.994	801.609
801.656	802.272
802.318	802.934
802.98	803.596
803.641	804.259
804.303	804.921
804.965	805.584
805.627	806.246
806.289	806.908
806.951	807.571
807.613	808.233
808.275	808.896
808.937	809.558
809.599	810.22
810.26	810.883
810.922	811.545
811.584	812.208
812.246	812.87
812.908	813.532
813.57	814.195
814.232	814.857
814.894	815.52
815.556	816.182
816.217	816.844
816.879	817.507
817.541	818.169
818.203	818.832
818.865	819.494
819.527	820.157
820.189	820.819
820.851	821.481
821.513	822.144
822.174	822.806
822.836	823.469
823.498	824.131
824.16	824.793
824.822	825.456
825.484	826.118
826.146	826.781
826.808	827.443
827.47	828.105
828.132	828.768
828.793	829.43
829.455	830.093
830.117	830.755
830.779	831.417
831.441	832.08
832.103	832.742
832.765	833.405
833.427	834.067
834.089	834.729
834.751	835.392
835.412	836.054
836.074	836.717
836.736	837.379
837.398	838.041
838.06	838.704
838.722	839.366
839.384	840.029
840.046	840.691
840.708	841.353
841.37	842.016
842.031	842.678
842.693	843.341
843.355	844.003
844.017	844.665
844.679	845.328
845.341	845.99
846.003	846.653
846.665	847.315
847.326	847.977
847.988	848.64
848.65	849.302
849.312	849.965
849.974	850.627
850.636	851.289
851.298	851.952
851.96	852.614
852.622	853.277
853.284	853.939
853.945	854.602
854.607	855.264
855.269	855.926
855.931	856.589
856.593	857.251
857.255	857.914
857.917	858.576
858.579	859.238
859.241	859.901
859.903	860.563
860.564	861.226
861.226	861.888
861.888	862.55
862.55	863.213
863.212	863.875
863.874	864.538
864.536	865.2
865.198	865.862
865.86	866.525
866.522	867.187
867.183	867.85
867.845	868.512
868.507	869.174
869.169	869.837
869.831	870.499
870.493	871.162
871.155	871.824
871.817	872.486
872.479	873.149
873.14	873.811
873.802	874.474
874.464	875.136
875.126	875.798
875.788	876.461
876.45	877.123
877.112	877.786
877.774	878.448
878.436	879.11
879.097	879.773
880.421	881.098
881.083	881.76
881.745	882.422
882.407	883.085
883.069	883.747
883.731	884.41
884.393	885.072
885.055	885.734
885.716	886.397
886.378	887.059
887.04	887.722
887.702	888.384
888.364	889.047
889.026	889.709
890.35	891.034
891.012	891.696
891.674	892.359
892.335	893.021
892.997	893.683
893.659	894.346
894.321	895.008
894.983	895.671
895.645	896.333
896.307	896.995
896.969	897.658
897.631	898.32
898.293	898.983
898.954	899.645
899.616	900.307
900.278	900.97
900.94	901.632
901.602	902.295
902.264	902.957
902.926	903.619
903.588	904.282
904.25	904.944
904.911	905.607
905.573	906.269
906.235	906.931
906.897	907.594
907.559	908.256
908.221	908.919
908.883	909.581
909.545	910.243
910.207	910.906
910.869	911.568
911.53	912.231
912.192	912.893
912.854	913.555
913.516	914.218
914.178	914.88
914.84	915.543
915.502	916.205
916.164	916.868
916.826	917.53
917.487	918.192
918.149	918.855
918.811	919.517
919.473	920.18
920.135	920.842
920.797	921.504
921.459	922.167
922.121	922.829
922.783	923.492
923.445	924.154
924.106	924.816
924.768	925.479
925.43	926.141
926.092	926.804
926.754	927.466
927.416	928.128
928.078	928.791
928.74	929.453
929.402	930.116
930.064	930.778
930.725	931.44
931.387	932.103
932.049	932.765
932.711	933.428
933.373	934.09
934.035	934.752
934.697	935.415
935.359	936.077
936.021	936.74
936.682	937.402
937.344	938.064
938.006	938.727
938.668	939.389
939.33	940.052
939.992	940.714
940.654	941.376
941.316	942.039
941.978	942.701
942.64	943.364
943.301	944.026
943.963	944.689
944.625	945.351
945.287	946.013
945.949	946.676
946.611	947.338
947.273	948.001
947.935	948.663
948.597	949.325
949.258	949.988
949.92	950.65
950.582	951.312
951.244	951.975
951.906	952.637
952.568	953.3
953.23	953.962
953.892	954.625
954.554	955.287
955.216	955.949
955.877	956.612
956.539	957.274
957.201	957.937
957.863	958.599
958.525	959.261
959.187	959.924
959.849	960.586
960.511	961.249
961.173	961.911
961.835	962.573
962.496	963.236
963.158	963.898
963.82	964.561
964.482	965.223
965.144	965.885
965.806	966.548
966.468	967.21
967.13	967.873
967.792	968.535
968.453	969.197
969.115	969.86
969.777	970.522
970.439	971.185
971.101	971.847
971.763	972.51
972.425	973.172
973.087	973.834
973.749	974.497
974.411	975.159
975.072	975.822
975.734	976.484
976.396	977.146
977.058	977.809
977.72	978.471
978.382	979.133
979.044	979.796
980.368	981.121
981.029	981.783
981.691	982.446
982.353	983.108
983.015	983.77
983.677	984.433
984.339	985.095
985.001	985.758
985.663	986.42
986.325	987.082
986.987	987.745
987.648	988.407
988.31	989.07
988.972	989.732
990.296	991.057
990.958	991.719
991.62	992.382
992.282	993.044
992.944	993.706
993.606	994.369
994.267	995.031
994.929	995.694
995.591	996.356
996.253	997.018
996.915	997.681
997.577	998.343
998.239	999.006
998.901	999.668
999.563	1000.331
1000.224	1000.993
1000.886	1001.655
1001.548	1002.318
1002.21	1002.98
1002.872	1003.643
1003.534	1004.305
1004.196	1004.967
1004.858	1005.63
1005.52	1006.292
1006.182	1006.954
1006.843	1007.617
1007.505	1008.279
1008.167	1008.942
1008.829	1009.604
1009.491	1010.267
1010.153	1010.929
1010.815	1011.591
1011.477	1012.254
1012.139	1012.916
1012.8	1013.579
1013.462	1014.241
1014.124	1014.903
1014.786	1015.566
1015.448	1016.228
1016.11	1016.891
1016.772	1017.553
1017.434	1018.215
1018.096	1018.878
1018.758	1019.54
1019.419	1020.203
1020.081	1020.865
1020.743	1021.527
1021.405	1022.19
1022.067	1022.852
1022.729	1023.515
1023.391	1024.177
1024.053	1024.839
1024.715	1025.502
1025.376	1026.164
1026.038	1026.827
1026.7	1027.489
1027.362	1028.151
1028.024	1028.814
1028.686	1029.476
1029.348	1030.139
1030.01	1030.801
1030.672	1031.463
1031.334	1032.126
1031.995	1032.788
1032.657	1033.451
1033.319	1034.113
1033.981	1034.776
1034.643	1035.438
1035.305	1036.1
1035.967	1036.763
1036.629	1037.425
1037.291	1038.088
1037.953	1038.75
1038.614	1039.412
1039.276	1040.075
1039.938	1040.737
1040.6	1041.399
1041.262	1042.062
1041.924	1042.724
1042.586	1043.387
1043.248	1044.049
1043.91	1044.712
1044.571	1045.374
1045.233	1046.036
1045.895	1046.699
1046.557	1047.361
1047.219	1048.024
1047.881	1048.686
1048.543	1049.348
1049.205	1050.011
1049.867	1050.673
1050.528	1051.336
1051.19	1051.998
1051.852	1052.66
1052.514	1053.323
1053.176	1053.985
1053.838	1054.648
1054.5	1055.31
1055.162	1055.972
1055.824	1056.635
1056.486	1057.297
1057.147	1057.96
1057.809	1058.622
1058.471	1059.284
1059.133	1059.947
1059.795	1060.609
1060.457	1061.272
1061.119	1061.934
1061.781	1062.596
1062.443	1063.259
1063.105	1063.921
1063.766	1064.584
1064.428	1065.246
1065.09	1065.909
1065.752	1066.571
1066.414	1067.233
1067.076	1067.896
1067.738	1068.558
1068.4	1069.22
1069.062	1069.883
1069.724	1070.545
1070.385	1071.208
1071.047	1071.87
1071.709	1072.532
1072.371	1073.195
1073.033	1073.857
1073.695	1074.52
1074.357	1075.182
1075.019	1075.845
1075.681	1076.507
1076.342	1077.169
1077.004	1077.832
1077.666	1078.494
1078.328	1079.156
1078.99	1079.819
1080.314	1081.144
1080.976	1081.806
1081.638	1082.469
1082.299	1083.131
1082.961	1083.793
1083.623	1084.456
1084.285	1085.118
1084.947	1085.781
1085.609	1086.443
1086.271	1087.105
1086.933	1087.768
1087.595	1088.43
1088.257	1089.093
1088.918	1089.755
1089.58	1090.417
1090.242	1091.08
1090.904	1091.742
1091.566	1092.405
1092.228	1093.067
1092.89	1093.729
1093.552	1094.392
1094.214	1095.054
1094.876	1095.717
1095.537	1096.379
1096.199	1097.041
1096.861	1097.704
1097.523	1098.366
1098.185	1099.029
1098.847	1099.691
1099.509	1100.354
1100.171	1101.016
1100.833	1101.678
1101.495	1102.341
1102.156	1103.003
1102.818	1103.666
1103.48	1104.328
1104.142	1104.99
1104.804	1105.653
1105.466	1106.315
1106.128	1106.978
1106.79	1107.64
1107.452	1108.302
1108.113	1108.965
1108.775	1109.627
1109.437	1110.29
1110.099	1110.952
1110.761	1111.614
1111.423	1112.277
1112.085	1112.939
1112.747	1113.602
1113.409	1114.264
1114.07	1114.926
1114.732	1115.589
1115.394	1116.251
1116.056	1116.914
1116.718	1117.576
1117.38	1118.238
1118.042	1118.901
1118.704	1119.563
1119.366	1120.226
1120.028	1120.888
1120.69	1121.55
1121.351	1122.213
1122.013	1122.875
1122.675	1123.538
1123.337	1124.2
1123.999	1124.862
1124.661	1125.525
1125.323	1126.187
1125.985	1126.85
1126.647	1127.512
1127.308	1128.174
1127.97	1128.837
1128.632	1129.499
1129.294	1130.162
1129.956	1130.824
1130.618	1131.487
1131.28	1132.149
1131.942	1132.811
1132.604	1133.474
1133.266	1134.136
1133.927	1134.798
1134.589	1135.461
1135.251	1136.123
1135.913	1136.786
1136.575	1137.448
1137.237	1138.111
1137.899	1138.773
1138.561	1139.435
1139.223	1140.098
1139.884	1140.76
1140.546	1141.423
1141.208	1142.085
1141.87	1142.747
1142.532	1143.41
1143.194	1144.072
1143.856	1144.734
1144.518	1145.397
1145.18	1146.059
1145.841	1146.722
1146.503	1147.384
1147.165	1148.047
1147.827	1148.709
1148.489	1149.371
1149.151	1150.034
1149.813	1150.696
1150.475	1151.359
1151.137	1152.021
1151.799	1152.683
1152.461	1153.346
1153.122	1154.008
1153.784	1154.671
1154.446	1155.333
1155.108	1155.995
1155.77	1156.658
1156.432	1157.32
1157.094	1157.983
1157.756	1158.645
1158.418	1159.307
1159.079	1159.97
1159.741	1160.632
1160.403	1161.295
1161.065	1161.957
1161.727	1162.62
1162.389	1163.282
1163.051	1163.944
1163.713	1164.607
1164.375	1165.269
1165.036	1165.932
1165.698	1166.594
1166.36	1167.256
1167.022	1167.919
1167.684	1168.581
1168.346	1169.244
1169.008	1169.906
1169.67	1170.568
1170.332	1171.231
1170.994	1171.893
1171.655	1172.556
1172.317	1173.218
1172.979	1173.88
1173.641	1174.543
1174.303	1175.205
1174.965	1175.868
1175.627	1176.53
1176.289	1177.192
1176.951	1177.855
1177.612	1178.517
1178.274	1179.18
1178.936	1179.842
1180.26	1181.167
1180.922	1181.829
1181.584	1182.492
1182.246	1183.154
1182.908	1183.816
1183.57	1184.479
1184.232	1185.141
1184.893	1185.804
1185.555	1186.466
1186.217	1187.129
1186.879	1187.791
1187.541	1188.453
1188.203	1189.116
1188.865	1189.778
1189.527	1190.44
1190.189	1191.103
1190.85	1191.765
1191.512	1192.428
1192.174	1193.09
1192.836	1193.753
1193.498	1194.415
1194.16	1195.077
1194.822	1195.74
1195.484	1196.402
1196.146	1197.065
1196.807	1197.727
1197.469	1198.389
1198.131	1199.052
1198.793	1199.714
1199.455	1200.376
1200.117	1201.039
1200.779	1201.701
1201.441	1202.364
1202.103	1203.026
1202.765	1203.689
1203.426	1204.351
1204.088	1205.013
1204.75	1205.676
1205.412	1206.338
1206.074	1207.001
1206.736	1207.663
1207.398	1208.325
1208.06	1208.988
1208.722	1209.65
1209.383	1210.313
1210.045	1210.975
1210.707	1211.637
1211.369	1212.3
1212.031	1212.962
1212.693	1213.625
1213.355	1214.287
1214.017	1214.949
1214.679	1215.612
1215.341	1216.274
1216.003	1216.937
1216.664	1217.599
1217.326	1218.261
1217.988	1218.924
1218.65	1219.586
1219.312	1220.249
1219.974	1220.911
1220.636	1221.573
1221.298	1222.236
1221.96	1222.898
1222.621	1223.561
1223.283	1224.223
1223.945	1224.885
1224.607	1225.548
1225.269	1226.21
1225.931	1226.873
1226.593	1227.535
1227.255	1228.198
1227.917	1228.86
1228.578	1229.522
1229.24	1230.185
1229.902	1230.847
1230.564	1231.51
1231.226	1232.172
1231.888	1232.834
1232.55	1233.497
1233.212	1234.159
1233.874	1234.822
1234.536	1235.484
1235.197	1236.146
1235.859	1236.809
1236.521	1237.471
1237.183	1238.134
1237.845	1238.796
1238.507	1239.458
1239.169	1240.121
1239.831	1240.783
1240.493	1241.446
1241.154	1242.108
1241.816	1242.771
1242.478	1243.433
1243.14	1244.095
1243.802	1244.758
1244.464	1245.42
1245.126	1246.082
1245.788	1246.745
1246.45	1247.407
1247.112	1248.07
1247.774	1248.732
1248.435	1249.394
1249.097	1250.057
1249.759	1250.719
1250.421	1251.382
1251.083	1252.044
1251.745	1252.707
1252.407	1253.369
1253.069	1254.031
1253.731	1254.694
1254.392	1255.356
1255.054	1256.018
1255.716	1256.681
1256.378	1257.343
1257.04	1258.006
1257.702	1258.668
1258.364	1259.331
1259.026	1259.993
1259.688	1260.655
1260.349	1261.318
1261.011	1261.98
1261.673	1262.643
1262.335	1263.305
1262.997	1263.967
1263.659	1264.63
1264.321	1265.292
1264.983	1265.955
1265.645	1266.617
1266.307	1267.279
1266.968	1267.942
1267.63	1268.604
1268.292	1269.267
1268.954	1269.929
1269.616	1270.591
1270.278	1271.254
1270.94	1271.916
1271.602	1272.579
1272.264	1273.241
1272.925	1273.903
1273.587	1274.566
1274.249	1275.228
1274.911	1275.891
1275.573	1276.553
1276.235	1277.215
1276.897	1277.878
1277.559	1278.54
1278.221	1279.203
1278.883	1279.865
1280.206	1281.19
1280.868	1281.852
1281.53	1282.515
1282.192	1283.177
1282.854	1283.839
1283.516	1284.502
1284.178	1285.164
1284.84	1285.827
1285.502	1286.489
1286.163	1287.151
1286.825	1287.814
1287.487	1288.476
1288.149	1289.139
1288.811	1289.801
1289.473	1290.464
1290.135	1291.126
1290.797	1291.788
1291.459	1292.451
1292.12	1293.113
1292.782	1293.776
1293.444	1294.438
1294.106	1295.1
1294.768	1295.763
1295.43	1296.425
1296.092	1297.088
1296.754	1297.75
1297.416	1298.412
1298.078	1299.075
1298.739	1299.737
1299.401	1300.4
1300.063	1301.062
1300.725	1301.724
1301.387	1302.387
1302.049	1303.049
1302.711	1303.712
1303.373	1304.374
1304.035	1305.036
1304.696	1305.699
1305.358	1306.361
1306.02	1307.024
1306.682	1307.686
1307.344	1308.349
1308.006	1309.011
1308.668	1309.673
1309.33	1310.336
1309.992	1310.998
1310.654	1311.66
1311.316	1312.323
1311.977	1312.985
1312.639	1313.648
1313.301	1314.31
1313.963	1314.973
1314.625	1315.635
1315.287	1316.297
1315.949	1316.96
1316.611	1317.622
1317.273	1318.285
1317.934	1318.947
1318.596	1319.609
1319.258	1320.272
1319.92	1320.934
1320.582	1321.596
1321.244	1322.259
1321.906	1322.921
1322.568	1323.584
1323.23	1324.246
1323.891	1324.909
1324.553	1325.571
1325.215	1326.233
1325.877	1326.896
1326.539	1327.558
1327.201	1328.221
1327.863	1328.883
1328.525	1329.545
1329.187	1330.208
1329.749	1330.77
1330.411	1331.432
1331.072	1332.095
1331.734	1332.757
1332.396	1333.42
1333.058	1334.082
1333.72	1334.745
1334.382	1335.407
1335.044	1336.069
1335.706	1336.732
1336.368	1337.394
1337.03	1338.057
1337.691	1338.719
1338.353	1339.381
1339.015	1340.044
1339.677	1340.706
1340.339	1341.369
1341.001	1342.031
1341.663	1342.693
1342.325	1343.356
1342.987	1344.018
1343.648	1344.681
1344.31	1345.343
1344.972	1346.005
1345.634	1346.668
1346.296	1347.33
1346.958	1347.993
1347.62	1348.655
1348.282	1349.318
1348.944	1349.98
1349.605	1350.642
1350.267	1351.305
1350.929	1351.967
1351.591	1352.63
1352.253	1353.292
1352.915	1353.954
1353.577	1354.617
1354.239	1355.279
1354.901	1355.942
1355.562	1356.604
1356.224	1357.266
1356.886	1357.929
1357.548	1358.591
1358.21	1359.254
1358.872	1359.916
1359.534	1360.578
1360.196	1361.241
1360.858	1361.903
1361.52	1362.566
1362.182	1363.228
1362.844	1363.89
1363.505	1364.553
1364.167	1365.215
1364.829	1365.878
1365.491	1366.54
1366.153	1367.202
1366.815	1367.865
1367.477	1368.527
1368.139	1369.19
1368.801	1369.852
1369.462	1370.514
1734.829	1736.162
1735.491	1736.824
1736.153	1737.486
1736.815	1738.149
1737.476	1738.811
1738.138	1739.474
1738.8	1740.136
1739.462	1740.798
1740.124	1741.461
1740.786	1742.123
1741.448	1742.786
1742.11	1743.448
1742.772	1744.11
1743.433	1744.773
1744.095	1745.435
1759.981	1761.333
1760.643	1761.995
1761.305	1762.658
1761.967	1763.32
1762.629	1763.983
1763.29	1764.645
1763.952	1765.307
1764.614	1765.97
1765.276	1766.632
1765.938	1767.295
1766.6	1767.957
1767.262	1768.619
1767.924	1769.282
1768.586	1769.944
1769.247	1770.607
1799.795	1801.177
1800.456	1801.84
1801.118	1802.502
1801.78	1803.164
1802.442	1803.827
1803.104	1804.489
1803.766	1805.152
1804.428	1805.814
1805.09	1806.476
1805.752	1807.139
1806.414	1807.801
1807.075	1808.464
1807.737	1809.126
1808.399	1809.789
1809.061	1810.451
1809.723	1811.113
1810.385	1811.776
1811.047	1812.438
1811.709	1813.1
1812.371	1813.763
1813.032	1814.425
1813.694	1815.088
1814.356	1815.75
1815.018	1816.412
1815.68	1817.075
1816.342	1817.737
1817.004	1818.4
1817.666	1819.062
1818.328	1819.725
1818.99	1820.387
1819.651	1821.049
1820.313	1821.712
1820.975	1822.374
1821.637	1823.036
1822.299	1823.699
1822.961	1824.361
1823.623	1825.024
1824.285	1825.686
1824.947	1826.349
1825.608	1827.011
1826.27	1827.673
1826.932	1828.336
1827.594	1828.998
1828.256	1829.661
1828.918	1830.323
1829.58	1830.985
1830.242	1831.648
1830.904	1832.31
1831.566	1832.973
1832.228	1833.635
1832.889	1834.297
1833.551	1834.96
1834.213	1835.622
1834.875	1836.285
1835.537	1836.947
1836.199	1837.609
1836.861	1838.272
1837.523	1838.934
1838.185	1839.597
1838.846	1840.259
1899.741	1901.2
1900.403	1901.863
1901.065	1902.525
1901.727	1903.188
1902.388	1903.85
1903.05	1904.512
1903.712	1905.175
1904.374	1905.837
1905.036	1906.5
1905.698	1907.162
1906.36	1907.824
1907.022	1908.487
1907.684	1909.149
1908.345	1909.812
1909.007	1910.474
1909.669	1911.136
1910.331	1911.799
1910.993	1912.461
1911.655	1913.124
1912.317	1913.786
1912.979	1914.448
1913.641	1915.111
1914.302	1915.773
1914.964	1916.436
1915.626	1917.098
1916.288	1917.76
1916.95	1918.423
1917.612	1919.085
1918.274	1919.748
1918.936	1920.41
1919.598	1921.072
1920.26	1921.735
1920.921	1922.397
1921.583	1923.06
1922.245	1923.722
1922.907	1924.384
1923.569	1925.047
1924.231	1925.709
1924.893	1926.372
1925.555	1927.034
1926.217	1927.696
1926.879	1928.359
1927.541	1929.021
1928.202	1929.684
1928.864	1930.346
1929.526	1931.009
1930.188	1931.671
1930.85	1932.333
1931.512	1932.996
1932.174	1933.658
1932.836	1934.32
1933.498	1934.983
1934.159	1935.645
1934.821	1936.308
1935.483	1936.97
1936.145	1937.632
1936.807	1938.295
1937.469	1938.957
1938.131	1939.62
1938.793	1940.282
1939.455	1940.945
1940.116	1941.607
1940.778	1942.269
1941.44	1942.932
1942.102	1943.594
1942.764	1944.256
1943.426	1944.919
1944.088	1945.581
1944.75	1946.244
1945.412	1946.906
1946.073	1947.569
1946.735	1948.231
1947.397	1948.893
1948.059	1949.556
1948.721	1950.218
1949.383	1950.881
1950.045	1951.543
1950.707	1952.205
1951.369	1952.868
1952.031	1953.53
1952.692	1954.193
1953.354	1954.855
1954.016	1955.517
1954.678	1956.18
1955.34	1956.842
1956.002	1957.505
1956.664	1958.167
1957.326	1958.829
1957.988	1959.492
1958.65	1960.154
1959.973	1961.479
1960.635	1962.141
1961.297	1962.804
1961.959	1963.466
1962.621	1964.129
1963.283	1964.791
1963.945	1965.453
1964.607	1966.116
1965.269	1966.778
1965.93	1967.441
1966.592	1968.103
1967.254	1968.766
1967.916	1969.428
1968.578	1970.09
1969.24	1970.753
1969.902	1971.415
1970.564	1972.078
1971.226	1972.74
1971.887	1973.402
1972.549	1974.065
1973.211	1974.727
1973.873	1975.39
1974.535	1976.052
1975.197	1976.714
1975.859	1977.377
1976.521	1978.039
1977.183	1978.702
1977.844	1979.364
1978.506	1980.026
1979.168	1980.689
1979.83	1981.351
1980.492	1982.014
1981.154	1982.676
1981.816	1983.338
1982.478	1984.001
1983.14	1984.663
1983.802	1985.326
1984.463	1985.988
1985.125	1986.651
1985.787	1987.313
1986.449	1987.975
1987.111	1988.638
1987.773	1989.3
1988.435	1989.962
1989.097	1990.625
1989.759	1991.287
1990.421	1991.95
1991.083	1992.612
1991.744	1993.274
1992.406	1993.937
1993.068	1994.599
1993.73	1995.262
1994.392	1995.924
1995.054	1996.587
1995.716	1997.249
1996.378	1997.911
1997.04	1998.574
1997.701	1999.236
1998.363	1999.898
1999.025	2000.561
1999.687	2001.223
2000.349	2001.886
2001.011	2002.548
2001.673	2003.211
2002.335	2003.873
2002.997	2004.535
2003.658	2005.198
2004.32	2005.86
2004.982	2006.523
2005.644	2007.185
2006.306	2007.847
2006.968	2008.51
2007.63	2009.172
2008.292	2009.835
2008.954	2010.497
2009.615	2011.159
2010.277	2011.822
2010.939	2012.484
2011.601	2013.147
2012.263	2013.809
2012.925	2014.471
2013.587	2015.134
2014.249	2015.796
2014.911	2016.459
2015.573	2017.121
2016.234	2017.783
2016.896	2018.446
2017.558	2019.108
2018.22	2019.771
2018.882	2020.433
2019.544	2021.095
2020.206	2021.758
2020.868	2022.42
2021.53	2023.083
2022.192	2023.745
2022.854	2024.407
2023.515	2025.07
2024.177	2025.732
2024.839	2026.395
2025.501	2027.057
2026.163	2027.719
2026.825	2028.382
2027.487	2029.044
2028.149	2029.707
2028.811	2030.369
2029.472	2031.031
2030.134	2031.694
2030.796	2032.356
2031.458	2033.019
2032.12	2033.681
2032.782	2034.344
2033.444	2035.006
2034.106	2035.668
2034.768	2036.331
2035.429	2036.993
2036.091	2037.656
2036.753	2038.318
2037.415	2038.98
2038.077	2039.643
2038.739	2040.305
2039.401	2040.968
2040.063	2041.63
2040.725	2042.292
2041.386	2042.955
2042.048	2043.617
2042.71	2044.28
2043.372	2044.942
2044.034	2045.604
2044.696	2046.267
2045.358	2046.929
2046.02	2047.592
2046.682	2048.254
2047.344	2048.917
2048.006	2049.579
2048.667	2050.241
2049.329	2050.904
2049.991	2051.566
2050.653	2052.229
2051.315	2052.891
2051.977	2053.553
2052.639	2054.216
2053.301	2054.878
2053.963	2055.541
2054.625	2056.203
2055.286	2056.865
2055.948	2057.528
2056.61	2058.19
2057.272	2058.853
2057.934	2059.515
2058.596	2060.177
2059.92	2061.502
2060.582	2062.165
2061.243	2062.827
2061.906	2063.49
2062.567	2064.152
2063.229	2064.814
2063.891	2065.477
2064.553	2066.139
2065.215	2066.801
2065.877	2067.464
2066.539	2068.126
2067.201	2068.789
2067.863	2069.451
2068.524	2070.114
2069.186	2070.776
2069.848	2071.438
2070.51	2072.101
2071.172	2072.763
2071.834	2073.426
2072.496	2074.088
2073.157	2074.75
2073.82	2075.413
2074.481	2076.075
2075.143	2076.738
2075.805	2077.4
2076.467	2078.062
2077.129	2078.725
2077.791	2079.387
2078.453	2080.05
2079.115	2080.712
2079.777	2081.374
2080.438	2082.037
2081.1	2082.699
2081.762	2083.362
2082.424	2084.024
2083.086	2084.686
2083.748	2085.349
2084.41	2086.011
2085.072	2086.674
2085.734	2087.336
2086.396	2087.999
2087.057	2088.661
2087.719	2089.323
2088.381	2089.986
2089.043	2090.648
2089.705	2091.311
2090.367	2091.973
2091.029	2092.635
2091.691	2093.298
2092.353	2093.96
2093.014	2094.622
2093.677	2095.285
2094.338	2095.947
2095.0	2096.61
2095.662	2097.272
2096.324	2097.934
2096.986	2098.597
2097.648	2099.259
2098.31	2099.922
2098.972	2100.584
2099.634	2101.246
2100.295	2101.909
2100.957	2102.571
2101.619	2103.234
2102.281	2103.896
2102.943	2104.559
2103.605	2105.221
2104.267	2105.883
2104.928	2106.546
2105.591	2107.208
2106.252	2107.871
2106.914	2108.533
2107.576	2109.195
2108.238	2109.858
2108.9	2110.52
2109.562	2111.183
2110.224	2111.845
2110.886	2112.507
2111.548	2113.17
2112.209	2113.832
2112.871	2114.494
2113.533	2115.157
2114.195	2115.819
2114.857	2116.482
2115.519	2117.144
2116.181	2117.807
2116.843	2118.469
2117.505	2119.132
2118.167	2119.794
2118.828	2120.456
2119.49	2121.119
2120.152	2121.781
2120.814	2122.443
2121.476	2123.106
2122.138	2123.768
2122.8	2124.431
2123.462	2125.093
2124.124	2125.755
2124.785	2126.418
2125.448	2127.08
2126.109	2127.743
2126.771	2128.405
2127.433	2129.067
2128.095	2129.73
2128.757	2130.392
2129.419	2131.055
2130.081	2131.717
2130.743	2132.379
2131.405	2133.042
2132.066	2133.704
2132.728	2134.367
2133.39	2135.029
2134.052	2135.692
2134.714	2136.354
2135.376	2137.016
2136.038	2137.679
2136.699	2138.341
2137.362	2139.004
2138.023	2139.666
2138.685	2140.328
2139.347	2140.991
2140.009	2141.653
2140.671	2142.315
2141.333	2142.978
2141.995	2143.64
2142.657	2144.303
2143.319	2144.965
2143.98	2145.627
2144.642	2146.29
2145.304	2146.952
2145.966	2147.615
2146.628	2148.277
2147.29	2148.939
2147.952	2149.602
2148.614	2150.264
2149.276	2150.927
2149.938	2151.589
2150.599	2152.252
2151.261	2152.914
2151.923	2153.576
2152.585	2154.239
2153.247	2154.901
2153.909	2155.564
2154.571	2156.226
2155.233	2156.888
2155.895	2157.551
2156.556	2158.213
2157.219	2158.876
2157.88	2159.538
2158.542	2160.2
2159.866	2161.525
2160.528	2162.188
2161.19	2162.85
2161.852	2163.512
2162.514	2164.175
2163.176	2164.837
2163.837	2165.5
2164.499	2166.162
2165.161	2166.825
2165.823	2167.487
2166.485	2168.149
2167.147	2168.812
2167.809	2169.474
2168.47	2170.136
2169.133	2170.799
2169.794	2171.461
2170.456	2172.124
2171.118	2172.786
2171.78	2173.448
2172.442	2174.111
2173.104	2174.773
2173.766	2175.436
2174.428	2176.098
2175.09	2176.76
2175.751	2177.423
2176.413	2178.085
2177.075	2178.748
2177.737	2179.41
2178.399	2180.073
2179.061	2180.735
2179.723	2181.397
2180.385	2182.06
2181.047	2182.722
2181.708	2183.385
2182.37	2184.047
2183.032	2184.709
2183.694	2185.372
2184.356	2186.034
2185.018	2186.697
2185.68	2187.359
2186.342	2188.021
2187.004	2188.684
2187.666	2189.346
2188.327	2190.009
2188.99	2190.671
2189.651	2191.333
2190.313	2191.996
2190.975	2192.658
2191.637	2193.321
2192.299	2193.983
2192.961	2194.646
2193.623	2195.308
2194.285	2195.97
2194.947	2196.633
2195.608	2197.295
2196.27	2197.958
2196.932	2198.62
2197.594	2199.282
2198.256	2199.945
2198.918	2200.607
